# Matter power spectrum P(k) at redshift z=0
# for k=4.78167e-06 to 1000 h/Mpc,
# number of wavenumbers equal to 530
# k (h/Mpc)  P (Mpc/h)^3:
4.781665e-06 2.9825260791e+01
9.340577e-05 5.8244048607e+02
1.820339e-04 1.1342010808e+03
2.706660e-04 1.6843200956e+03
3.593023e-04 2.2320967950e+03
4.479428e-04 2.7769374835e+03
5.365875e-04 3.3183614214e+03
6.252365e-04 3.8559916901e+03
7.138899e-04 4.3895382112e+03
8.025477e-04 4.9187749928e+03
8.912100e-04 5.4435213435e+03
9.798769e-04 5.9636286137e+03
1.068548e-03 6.4789698277e+03
1.157225e-03 6.9894356214e+03
1.245906e-03 7.4949336934e+03
1.334592e-03 7.9953855221e+03
1.423283e-03 8.4907238503e+03
1.511979e-03 8.9809035715e+03
1.600679e-03 9.4658708591e+03
1.689386e-03 9.9455977670e+03
1.778097e-03 1.0420073007e+04
1.866814e-03 1.0889235746e+04
1.955536e-03 1.1353109660e+04
2.044263e-03 1.1811680096e+04
2.132997e-03 1.2264944219e+04
2.221735e-03 1.2712891832e+04
2.310480e-03 1.3155568000e+04
2.399230e-03 1.3592950015e+04
2.487987e-03 1.4025071704e+04
2.576749e-03 1.4451938731e+04
2.665517e-03 1.4873590688e+04
2.754292e-03 1.5290046102e+04
2.843073e-03 1.5701315364e+04
2.931860e-03 1.6107449715e+04
3.020654e-03 1.6508467444e+04
3.109454e-03 1.6904415873e+04
3.198261e-03 1.7295311940e+04
3.287075e-03 1.7681180509e+04
3.375896e-03 1.8062085758e+04
3.464724e-03 1.8438042828e+04
3.553558e-03 1.8809115478e+04
3.642400e-03 1.9175280565e+04
3.731250e-03 1.9536649551e+04
3.820106e-03 1.9893194061e+04
3.908971e-03 2.0244998019e+04
3.997843e-03 2.0592079345e+04
4.086722e-03 2.0934468785e+04
4.175610e-03 2.1272239243e+04
4.264505e-03 2.1605402006e+04
4.353409e-03 2.1933985157e+04
4.442321e-03 2.2258076341e+04
4.531242e-03 2.2577674214e+04
4.620171e-03 2.2892809296e+04
4.709108e-03 2.3203558836e+04
4.798054e-03 2.3509947424e+04
4.887010e-03 2.3811980860e+04
4.975974e-03 2.4109755316e+04
5.064947e-03 2.4403279937e+04
5.153930e-03 2.4692596951e+04
5.242923e-03 2.4977738860e+04
5.331924e-03 2.5258738661e+04
5.420936e-03 2.5535666461e+04
5.509958e-03 2.5808507201e+04
5.598989e-03 2.6077364859e+04
5.688031e-03 2.6342204479e+04
5.777083e-03 2.6603111978e+04
5.866146e-03 2.6860102534e+04
5.955220e-03 2.7113233204e+04
6.044304e-03 2.7362492189e+04
6.133399e-03 2.7607993252e+04
6.222506e-03 2.7849680182e+04
6.311624e-03 2.8087583818e+04
6.400753e-03 2.8321824856e+04
6.489895e-03 2.8552418041e+04
6.579048e-03 2.8779314956e+04
6.668213e-03 2.9002694742e+04
6.757390e-03 2.9222492711e+04
6.846580e-03 2.9438691537e+04
6.935783e-03 2.9651492627e+04
7.024998e-03 2.9860769779e+04
7.114227e-03 3.0066635479e+04
7.203468e-03 3.0269056268e+04
7.292724e-03 3.0468067994e+04
7.381992e-03 3.0663795912e+04
7.471275e-03 3.0856182911e+04
7.560572e-03 3.1045317762e+04
7.649883e-03 3.1231155797e+04
7.739209e-03 3.1413877770e+04
7.828549e-03 3.1593288540e+04
7.917904e-03 3.1769540522e+04
8.007275e-03 3.1942690915e+04
8.096661e-03 3.2112667234e+04
8.186062e-03 3.2279683171e+04
8.275480e-03 3.2443536405e+04
8.364914e-03 3.2604429927e+04
8.454364e-03 3.2762279577e+04
8.543830e-03 3.2917159304e+04
8.633314e-03 3.3069116529e+04
8.722815e-03 3.3218134109e+04
8.812333e-03 3.3364309301e+04
8.901869e-03 3.3507520078e+04
8.991424e-03 3.3647964605e+04
9.080996e-03 3.3785613515e+04
9.170587e-03 3.3920411724e+04
9.260197e-03 3.4052432002e+04
9.349826e-03 3.4181760041e+04
9.439474e-03 3.4308320261e+04
9.529142e-03 3.4432153228e+04
9.618830e-03 3.4553430529e+04
9.708539e-03 3.4671979880e+04
9.798268e-03 3.4787972643e+04
9.888018e-03 3.4901380812e+04
9.977790e-03 3.5012001863e+04
1.006758e-02 3.5120264154e+04
1.015740e-02 3.5225903218e+04
1.024724e-02 3.5329157593e+04
1.033710e-02 3.5429901155e+04
1.042698e-02 3.5528003595e+04
1.051689e-02 3.5623803150e+04
1.060682e-02 3.5717129523e+04
1.069677e-02 3.5808077010e+04
1.078675e-02 3.5896669746e+04
1.087675e-02 3.5982868230e+04
1.096678e-02 3.6066765153e+04
1.105684e-02 3.6148419345e+04
1.114692e-02 3.6227538255e+04
1.123703e-02 3.6304598586e+04
1.132716e-02 3.6379263783e+04
1.141732e-02 3.6451742792e+04
1.150751e-02 3.6522118593e+04
1.159773e-02 3.6590073857e+04
1.168798e-02 3.6655821639e+04
1.177825e-02 3.6719365040e+04
1.186856e-02 3.6780921695e+04
1.195889e-02 3.6840000396e+04
1.204926e-02 3.6897160152e+04
1.213966e-02 3.6952482162e+04
1.223009e-02 3.7005679227e+04
1.232055e-02 3.7057043837e+04
1.241104e-02 3.7106305449e+04
1.250156e-02 3.7153624627e+04
1.259212e-02 3.7198798090e+04
1.268272e-02 3.7242329770e+04
1.277334e-02 3.7283650789e+04
1.286401e-02 3.7323022498e+04
1.295471e-02 3.7360307567e+04
1.304544e-02 3.7395823196e+04
1.313621e-02 3.7429570602e+04
1.322702e-02 3.7461208559e+04
1.331787e-02 3.7491241526e+04
1.340876e-02 3.7519370536e+04
1.349968e-02 3.7545499102e+04
1.359065e-02 3.7569820090e+04
1.368165e-02 3.7592457652e+04
1.377270e-02 3.7613159210e+04
1.386379e-02 3.7632454444e+04
1.395492e-02 3.7649694345e+04
1.404609e-02 3.7665252894e+04
1.413731e-02 3.7678966343e+04
1.422857e-02 3.7691366070e+04
1.431988e-02 3.7701795916e+04
1.441123e-02 3.7710647610e+04
1.450263e-02 3.7717983212e+04
1.459408e-02 3.7723359668e+04
1.468558e-02 3.7727491138e+04
1.477713e-02 3.7730119410e+04
1.486872e-02 3.7730689118e+04
1.496037e-02 3.7729903008e+04
1.505206e-02 3.7727810325e+04
1.514381e-02 3.7724033558e+04
1.523562e-02 3.7718532721e+04
1.532747e-02 3.7711733116e+04
1.541939e-02 3.7703426100e+04
1.551135e-02 3.7693319740e+04
1.560338e-02 3.7682462115e+04
1.569546e-02 3.7669764693e+04
1.578760e-02 3.7655444103e+04
1.587980e-02 3.7639988625e+04
1.597206e-02 3.7623168096e+04
1.606439e-02 3.7604807256e+04
1.615677e-02 3.7585172917e+04
1.624922e-02 3.7564273113e+04
1.634173e-02 3.7542025618e+04
1.643431e-02 3.7518861194e+04
1.652696e-02 3.7493903945e+04
1.661967e-02 3.7467920590e+04
1.671245e-02 3.7440215181e+04
1.680531e-02 3.7411901655e+04
1.689823e-02 3.7382089055e+04
1.699123e-02 3.7350672174e+04
1.708430e-02 3.7318563277e+04
1.717744e-02 3.7284240116e+04
1.727066e-02 3.7249446912e+04
1.736396e-02 3.7213216473e+04
1.745734e-02 3.7175920679e+04
1.755080e-02 3.7137298062e+04
1.764434e-02 3.7097520559e+04
1.773796e-02 3.7057047262e+04
1.783166e-02 3.7015158488e+04
1.792545e-02 3.6972078069e+04
1.801933e-02 3.6927992488e+04
1.811330e-02 3.6882773240e+04
1.820736e-02 3.6834387125e+04
1.830151e-02 3.6786570714e+04
1.839575e-02 3.6737966533e+04
1.849009e-02 3.6688460552e+04
1.858452e-02 3.6637989702e+04
1.867905e-02 3.6586076528e+04
1.877368e-02 3.6533263993e+04
1.886841e-02 3.6479456433e+04
1.896325e-02 3.6424267319e+04
1.905819e-02 3.6362195798e+04
1.915324e-02 3.6308517918e+04
1.924839e-02 3.6250862943e+04
1.934366e-02 3.6192329801e+04
1.943904e-02 3.6132712214e+04
1.953453e-02 3.6071181349e+04
1.963014e-02 3.6009631169e+04
1.972587e-02 3.5949525980e+04
1.982172e-02 3.5886031761e+04
1.991769e-02 3.5821406362e+04
2.001379e-02 3.5755470560e+04
2.011001e-02 3.5689563374e+04
2.020637e-02 3.5622770212e+04
2.030285e-02 3.5555189144e+04
2.039947e-02 3.5486713881e+04
2.049622e-02 3.5417937085e+04
2.059312e-02 3.5347464376e+04
2.069015e-02 3.5276640002e+04
2.078733e-02 3.5204497833e+04
2.088466e-02 3.5132765268e+04
2.098213e-02 3.5058382546e+04
2.107976e-02 3.4983972348e+04
2.117754e-02 3.4909793484e+04
2.127548e-02 3.4834699439e+04
2.137358e-02 3.4757325732e+04
2.147184e-02 3.4680148571e+04
2.157027e-02 3.4602184611e+04
2.166886e-02 3.4523929403e+04
2.176763e-02 3.4444421761e+04
2.186658e-02 3.4364893975e+04
2.196570e-02 3.4284556695e+04
2.206501e-02 3.4202615632e+04
2.216450e-02 3.4120539785e+04
2.226418e-02 3.4037823860e+04
2.236406e-02 3.3957301210e+04
2.246413e-02 3.3873403125e+04
2.256440e-02 3.3787461055e+04
2.266488e-02 3.3701707252e+04
2.276556e-02 3.3617247103e+04
2.286646e-02 3.3530278595e+04
2.296757e-02 3.3447924772e+04
2.306890e-02 3.3361275021e+04
2.317045e-02 3.3272976389e+04
2.327224e-02 3.3184680809e+04
2.337426e-02 3.3094434080e+04
2.347652e-02 3.3005777434e+04
2.357901e-02 3.2914081881e+04
2.368176e-02 3.2822419347e+04
2.378476e-02 3.2726516262e+04
2.388802e-02 3.2637511478e+04
2.399154e-02 3.2545582600e+04
2.409533e-02 3.2453175348e+04
2.419939e-02 3.2358540512e+04
2.430373e-02 3.2262282381e+04
2.440835e-02 3.2166801153e+04
2.451327e-02 3.2072844084e+04
2.461848e-02 3.1978921137e+04
2.472400e-02 3.1879423630e+04
2.482982e-02 3.1784325099e+04
2.493596e-02 3.1687161917e+04
2.504242e-02 3.1590997669e+04
2.514921e-02 3.1492453403e+04
2.525634e-02 3.1393123306e+04
2.536381e-02 3.1294223002e+04
2.547163e-02 3.1195008676e+04
2.557981e-02 3.1094767517e+04
2.568836e-02 3.0994626528e+04
2.579728e-02 3.0893761047e+04
2.590658e-02 3.0795207989e+04
2.601627e-02 3.0693696166e+04
2.612636e-02 3.0591397946e+04
2.623686e-02 3.0488658659e+04
2.634778e-02 3.0385630029e+04
2.645913e-02 3.0282457220e+04
2.657091e-02 3.0179878617e+04
2.668314e-02 3.0075740843e+04
2.679582e-02 2.9970379023e+04
2.690898e-02 2.9862630119e+04
2.702261e-02 2.9758753164e+04
2.713673e-02 2.9659477928e+04
2.725135e-02 2.9546217929e+04
2.736649e-02 2.9439108945e+04
2.748216e-02 2.9332665151e+04
2.759836e-02 2.9225345200e+04
2.771511e-02 2.9118006439e+04
2.783243e-02 2.9010026811e+04
2.795033e-02 2.8900668525e+04
2.806883e-02 2.8797158117e+04
2.818793e-02 2.8683464271e+04
2.830766e-02 2.8573375396e+04
2.842803e-02 2.8462342001e+04
2.854905e-02 2.8352140617e+04
2.867075e-02 2.8244132074e+04
2.879314e-02 2.8132706865e+04
2.891624e-02 2.8021019248e+04
2.904007e-02 2.7909179290e+04
2.916465e-02 2.7797447072e+04
2.929000e-02 2.7683422558e+04
2.941614e-02 2.7570877783e+04
2.954309e-02 2.7457306670e+04
2.967087e-02 2.7343226119e+04
2.979952e-02 2.7228962379e+04
2.992905e-02 2.7114812113e+04
3.005948e-02 2.6999118086e+04
3.019085e-02 2.6883217031e+04
3.032319e-02 2.6766291959e+04
3.045651e-02 2.6649997285e+04
3.059086e-02 2.6533212594e+04
3.072626e-02 2.6415231989e+04
3.086274e-02 2.6302256310e+04
3.100034e-02 2.6180226358e+04
3.113910e-02 2.6062177795e+04
3.127904e-02 2.5942976096e+04
3.142022e-02 2.5828022201e+04
3.156266e-02 2.5705336483e+04
3.170642e-02 2.5586122929e+04
3.185152e-02 2.5463472843e+04
3.199804e-02 2.5342297322e+04
3.214600e-02 2.5220776516e+04
3.229546e-02 2.5099542589e+04
3.244647e-02 2.4980082368e+04
3.259909e-02 2.4853828493e+04
3.275338e-02 2.4734466793e+04
3.290940e-02 2.4609972760e+04
3.306721e-02 2.4484829808e+04
3.322689e-02 2.4358209891e+04
3.338850e-02 2.4230569142e+04
3.355212e-02 2.4108768204e+04
3.371783e-02 2.3980548334e+04
3.388572e-02 2.3851303321e+04
3.405588e-02 2.3726470521e+04
3.422840e-02 2.3593181566e+04
3.440338e-02 2.3464984302e+04
3.458094e-02 2.3334658259e+04
3.476118e-02 2.3204091692e+04
3.494423e-02 2.3072841024e+04
3.513021e-02 2.2940318516e+04
3.531928e-02 2.2810191786e+04
3.551157e-02 2.2674914507e+04
3.570724e-02 2.2540768714e+04
3.590647e-02 2.2405497754e+04
3.610944e-02 2.2269400986e+04
3.631635e-02 2.2134002827e+04
3.652740e-02 2.1996246018e+04
3.674283e-02 2.1857433445e+04
3.696288e-02 2.1715501987e+04
3.718784e-02 2.1576104438e+04
3.741797e-02 2.1433462567e+04
3.765361e-02 2.1288828215e+04
3.789511e-02 2.1147012367e+04
3.814284e-02 2.1001473917e+04
3.839721e-02 2.0854013782e+04
3.865870e-02 2.0703480947e+04
3.892779e-02 2.0555570176e+04
3.920506e-02 2.0402974458e+04
3.949113e-02 2.0251121933e+04
3.978668e-02 2.0095739332e+04
4.009249e-02 1.9937766900e+04
4.040943e-02 1.9781224716e+04
4.073848e-02 1.9621100335e+04
4.108076e-02 1.9456934607e+04
4.143752e-02 1.9293883216e+04
4.181022e-02 1.9125408253e+04
4.220053e-02 1.8957435211e+04
4.261037e-02 1.8782480037e+04
4.304201e-02 1.8609498886e+04
4.349809e-02 1.8429975409e+04
4.398175e-02 1.8249296890e+04
4.449675e-02 1.8063819628e+04
4.504763e-02 1.7874138616e+04
4.563991e-02 1.7681231848e+04
4.628041e-02 1.7484532396e+04
4.697768e-02 1.7280161483e+04
4.774255e-02 1.7070409122e+04
4.858896e-02 1.6852682617e+04
4.953518e-02 1.6625069117e+04
5.060559e-02 1.6388854226e+04
5.183327e-02 1.6138176000e+04
5.326387e-02 1.5867995139e+04
5.496113e-02 1.5568055950e+04
5.701377e-02 1.5221578166e+04
5.954106e-02 1.4795680147e+04
6.268658e-02 1.4227967161e+04
6.657617e-02 1.3439731260e+04
7.122608e-02 1.2349664892e+04
7.647883e-02 1.0999988309e+04
8.208985e-02 9.5836340053e+03
8.786937e-02 8.3322855498e+03
9.371788e-02 7.3860457817e+03
9.959287e-02 6.7621806701e+03
1.054778e-01 6.3840280342e+03
1.113663e-01 6.1278911898e+03
1.172562e-01 5.8738613005e+03
1.231467e-01 5.5442304716e+03
1.290372e-01 5.1179804321e+03
1.349279e-01 4.6393419676e+03
1.408186e-01 4.1744940973e+03
1.467093e-01 3.7812229249e+03
1.526000e-01 3.4860081901e+03
1.584907e-01 3.2875051090e+03
1.643814e-01 3.1572115489e+03
1.702721e-01 3.0547390202e+03
1.761628e-01 2.9463442824e+03
1.820535e-01 2.8092460746e+03
1.879442e-01 2.6420182358e+03
1.938349e-01 2.4575567667e+03
1.997256e-01 2.2780683438e+03
2.056163e-01 2.1206047847e+03
2.115070e-01 1.9959367109e+03
2.173977e-01 1.9023148565e+03
2.232884e-01 1.8327810856e+03
2.291791e-01 1.7750614402e+03
2.350698e-01 1.7157315074e+03
2.409605e-01 1.6482698805e+03
2.468511e-01 1.5718779812e+03
2.527418e-01 1.4897649711e+03
2.586325e-01 1.4090713153e+03
2.645232e-01 1.3356254186e+03
2.704139e-01 1.2726703690e+03
2.763046e-01 1.2213810041e+03
2.821953e-01 1.1786966035e+03
2.880860e-01 1.1409517511e+03
2.939767e-01 1.1045849608e+03
2.998674e-01 1.0667525721e+03
3.057581e-01 1.0264539952e+03
3.116488e-01 9.8480411051e+02
3.175395e-01 9.4360671462e+02
3.234302e-01 9.0485225403e+02
3.293209e-01 8.6965130555e+02
3.352116e-01 8.3872521561e+02
3.411023e-01 8.1162452092e+02
3.469930e-01 7.8664083887e+02
3.528837e-01 7.6295492605e+02
3.587744e-01 7.3954678418e+02
3.646651e-01 7.1585863300e+02
3.705558e-01 6.9197105008e+02
3.764465e-01 6.6840977271e+02
3.823372e-01 6.4581188023e+02
3.882279e-01 6.2469366727e+02
3.941186e-01 6.0507702596e+02
4.000093e-01 5.8709734525e+02
4.059000e-01 5.7031530383e+02
4.117907e-01 5.5439081343e+02
4.176814e-01 5.3891613567e+02
4.235721e-01 5.2370494268e+02
4.294628e-01 5.0871485259e+02
4.353535e-01 4.9401628503e+02
4.412442e-01 4.7975284210e+02
4.471349e-01 4.6612689290e+02
4.530256e-01 4.5320911432e+02
4.589163e-01 4.4103006748e+02
4.648070e-01 4.2948536159e+02
4.706977e-01 4.1843796877e+02
4.765884e-01 4.0777270229e+02
4.824791e-01 3.9741586364e+02
4.883698e-01 3.8730477685e+02
4.942605e-01 3.7744693912e+02
5.001512e-01 3.6788630457e+02
5.060419e-01 3.5863815738e+02
5.119326e-01 3.4975733189e+02
5.178233e-01 3.4123369974e+02
5.237140e-01 3.3307251214e+02
5.296047e-01 3.2520811701e+02
5.354954e-01 3.1762326825e+02
5.413861e-01 3.1027994563e+02
5.472768e-01 3.0313463728e+02
5.531675e-01 2.9618291945e+02
5.590582e-01 2.8942961101e+02
5.649489e-01 2.8287650124e+02
5.708396e-01 2.7653713996e+02
5.767303e-01 2.7040978447e+02
5.826210e-01 2.6448860467e+02
5.885117e-01 2.5876825476e+02
5.944024e-01 2.5322757320e+02
6.002931e-01 2.4785067872e+02
6.061838e-01 2.4262470913e+02
6.120745e-01 2.3754633410e+02
6.179652e-01 2.3260233026e+02
6.238558e-01 2.2779977991e+02
6.297465e-01 2.2312956551e+02
6.356372e-01 2.1859793458e+02
6.415279e-01 2.1420061684e+02
6.474186e-01 2.0992979172e+02
6.533093e-01 2.0578468057e+02
6.592000e-01 2.0175329295e+02
6.650907e-01 1.9782764537e+02
6.709814e-01 1.9400895964e+02
8.430936e-01 1.1631558305e+02
1.059354e+00 6.8960953069e+01
1.331087e+00 4.0470238524e+01
1.672521e+00 2.3536081732e+01
2.101537e+00 1.3576200550e+01
2.640598e+00 7.7700714741e+00
3.317933e+00 4.4171776395e+00
4.169009e+00 2.4961238011e+00
5.238394e+00 1.4021442289e+00
6.582085e+00 7.8392933704e-01
8.270443e+00 4.3602591459e-01
1.039188e+01 2.4134549374e-01
1.305748e+01 1.3318282226e-01
1.640683e+01 7.3170340172e-02
2.061531e+01 4.0040973722e-02
2.590331e+01 2.1832311169e-02
3.254772e+01 1.1867829205e-02
4.089647e+01 6.4196867059e-03
5.138675e+01 3.4646900317e-03
6.456787e+01 1.8590013062e-03
8.113005e+01 9.9185014940e-04
1.019406e+02 5.2546562387e-04
1.280891e+02 2.7529149304e-04
1.609451e+02 1.4201027689e-04
2.022288e+02 7.1917883529e-05
2.541021e+02 3.5410797440e-05
3.192813e+02 1.6859551699e-05
4.011796e+02 7.7436149770e-06
5.040854e+02 3.4680982248e-06
6.333874e+02 1.5549515255e-06
7.958564e+02 7.2481929207e-07
1.000000e+03 3.5307502670e-07
